Data from HDX004411_15-26-27-108.txt Node
Date: Tue Jul 02 15:26:27 CEST 2019
User: andres
Spectrometer: HDX00441
Trigger mode: 0
Integration Time (sec): 6,000000E-3
Scans to average: 1
Nonlinearity correction enabled: false
Boxcar width: 0
Storing dark spectrum: false
XAxis mode: Wavelengths
Number of Pixels in Spectrum: 2068
>>>>>Begin Spectral Data<<<<<
193,018	1712
193,576	1247
194,133	1302
194,69	1301
195,247	1318
195,804	1308
196,361	1312
196,918	1311
197,474	1307
198,031	1317
198,587	1313
199,143	1309
199,699	1310
200,255	1315
200,811	1317
201,366	1321
201,922	1315
202,477	1308
203,032	1328
203,588	1320
204,143	1320
204,698	1311
205,252	1329
205,807	1310
206,361	1325
206,916	1324
207,47	1325
208,024	1319
208,578	1317
209,132	1312
209,686	1323
210,24	1320
210,793	1322
211,346	1315
211,9	1305
212,453	1323
213,006	1315
213,559	1320
214,111	1322
214,664	1320
215,217	1324
215,769	1327
216,321	1315
216,873	1319
217,425	1320
217,977	1324
218,529	1316
219,081	1323
219,632	1331
220,184	1324
220,735	1319
221,286	1314
221,837	1316
222,388	1321
222,939	1327
223,489	1324
224,04	1335
224,59	1325
225,14	1314
225,691	1331
226,241	1313
226,79	1316
227,34	1335
227,89	1328
228,439	1323
228,989	1319
229,538	1330
230,087	1325
230,636	1322
231,185	1326
231,734	1325
232,282	1330
232,831	1324
233,379	1328
233,928	1325
234,476	1337
235,024	1328
235,572	1334
236,119	1337
236,667	1325
237,215	1333
237,762	1314
238,309	1315
238,856	1330
239,403	1323
239,95	1323
240,497	1321
241,044	1328
241,59	1324
242,137	1325
242,683	1317
243,229	1322
243,775	1331
244,321	1333
244,867	1325
245,412	1331
245,958	1322
246,503	1326
247,049	1318
247,594	1333
248,139	1322
248,684	1317
249,229	1314
249,773	1333
250,318	1321
250,862	1326
251,406	1326
251,951	1318
252,495	1338
253,039	1329
253,582	1335
254,126	1318
254,67	1329
255,213	1333
255,756	1330
256,3	1324
256,843	1334
257,386	1333
257,928	1327
258,471	1324
259,014	1318
259,556	1324
260,098	1327
260,641	1327
261,183	1331
261,725	1312
262,266	1326
262,808	1325
263,35	1332
263,891	1324
264,433	1322
264,974	1331
265,515	1328
266,056	1328
266,597	1327
267,137	1325
267,678	1328
268,218	1319
268,759	1319
269,299	1316
269,839	1327
270,379	1323
270,919	1326
271,459	1334
271,998	1333
272,538	1334
273,077	1319
273,616	1330
274,156	1330
274,695	1331
275,233	1326
275,772	1323
276,311	1333
276,849	1331
277,388	1328
277,926	1322
278,464	1323
279,002	1330
279,54	1324
280,078	1338
280,616	1328
281,153	1328
281,691	1324
282,228	1334
282,765	1324
283,302	1332
283,839	1328
284,376	1322
284,912	1340
285,449	1332
285,985	1326
286,522	1325
287,058	1331
287,594	1331
288,13	1338
288,666	1324
289,201	1326
289,737	1338
290,273	1334
290,808	1327
291,343	1334
291,878	1330
292,413	1321
292,948	1324
293,483	1323
294,017	1325
294,552	1331
295,086	1331
295,62	1329
296,155	1329
296,689	1331
297,222	1326
297,756	1329
298,29	1333
298,823	1327
299,357	1334
299,89	1324
300,423	1333
300,956	1327
301,489	1317
302,022	1326
302,555	1331
303,087	1323
303,62	1340
304,152	1322
304,684	1316
305,216	1329
305,748	1320
306,28	1323
306,812	1333
307,343	1330
307,875	1324
308,406	1322
308,937	1329
309,468	1330
309,999	1332
310,53	1328
311,061	1332
311,591	1330
312,122	1333
312,652	1336
313,183	1318
313,713	1331
314,243	1320
314,773	1328
315,302	1330
315,832	1328
316,361	1326
316,891	1325
317,42	1322
317,949	1338
318,478	1332
319,007	1319
319,536	1332
320,065	1329
320,593	1330
321,122	1327
321,65	1329
322,178	1321
322,706	1338
323,234	1325
323,762	1326
324,29	1331
324,817	1326
325,345	1328
325,872	1329
326,4	1327
326,927	1332
327,454	1338
327,981	1328
328,507	1330
329,034	1326
329,56	1326
330,087	1330
330,613	1333
331,139	1325
331,665	1336
332,191	1328
332,717	1328
333,243	1331
333,768	1332
334,294	1325
334,819	1324
335,344	1325
335,869	1325
336,394	1320
336,919	1316
337,444	1329
337,968	1327
338,493	1329
339,017	1324
339,541	1329
340,066	1332
340,59	1328
341,114	1321
341,637	1328
342,161	1319
342,684	1327
343,208	1327
343,731	1325
344,254	1332
344,777	1332
345,3	1325
345,823	1325
346,346	1328
346,868	1323
347,391	1331
347,913	1325
348,435	1329
348,957	1327
349,479	1328
350,001	1322
350,523	1314
351,045	1319
351,566	1318
352,088	1319
352,609	1321
353,13	1318
353,651	1336
354,172	1321
354,693	1321
355,213	1324
355,734	1334
356,254	1318
356,775	1321
357,295	1327
357,815	1317
358,335	1330
358,855	1319
359,374	1327
359,894	1320
360,414	1321
360,933	1323
361,452	1322
361,971	1332
362,49	1321
363,009	1326
363,528	1318
364,047	1313
364,565	1319
365,084	1329
365,602	1324
366,12	1317
366,638	1317
367,156	1319
367,674	1326
368,192	1320
368,709	1326
369,227	1324
369,744	1322
370,261	1311
370,778	1326
371,295	1323
371,812	1329
372,329	1320
372,846	1322
373,362	1324
373,879	1322
374,395	1333
374,911	1330
375,427	1319
375,943	1314
376,459	1328
376,975	1323
377,49	1321
378,006	1318
378,521	1316
379,036	1332
379,551	1324
380,066	1324
380,581	1331
381,096	1317
381,611	1324
382,125	1328
382,64	1319
383,154	1322
383,668	1326
384,182	1321
384,696	1325
385,21	1325
385,724	1329
386,237	1325
386,751	1325
387,264	1317
387,777	1317
388,29	1328
388,803	1325
389,316	1321
389,829	1332
390,342	1330
390,854	1322
391,367	1316
391,879	1320
392,391	1323
392,903	1326
393,415	1331
393,927	1321
394,439	1317
394,95	1327
395,462	1322
395,973	1325
396,484	1324
396,996	1327
397,507	1331
398,017	1334
398,528	1316
399,039	1329
399,549	1329
400,06	1321
400,57	1323
401,08	1330
401,591	1325
402,1	1317
402,61	1332
403,12	1319
403,63	1327
404,139	1324
404,649	1329
405,158	1328
405,667	1325
406,176	1325
406,685	1325
407,194	1327
407,702	1327
408,211	1325
408,72	1317
409,228	1326
409,736	1328
410,244	1313
410,752	1327
411,26	1331
411,768	1324
412,275	1328
412,783	1323
413,29	1329
413,798	1333
414,305	1323
414,812	1328
415,319	1325
415,826	1321
416,332	1327
416,839	1331
417,346	1320
417,852	1320
418,358	1325
418,864	1322
419,37	1331
419,876	1335
420,382	1325
420,888	1322
421,393	1332
421,899	1323
422,404	1316
422,909	1336
423,414	1324
423,919	1329
424,424	1328
424,929	1324
425,434	1326
425,938	1332
426,443	1332
426,947	1330
427,451	1333
427,955	1326
428,459	1327
428,963	1325
429,467	1320
429,97	1333
430,474	1325
430,977	1325
431,48	1320
431,983	1336
432,487	1334
432,989	1325
433,492	1332
433,995	1325
434,497	1331
435	1328
435,502	1326
436,004	1325
436,507	1330
437,009	1331
437,51	1327
438,012	1323
438,514	1329
439,015	1328
439,517	1332
440,018	1326
440,519	1327
441,02	1330
441,521	1320
442,022	1321
442,523	1332
443,024	1328
443,524	1326
444,024	1324
444,525	1321
445,025	1321
445,525	1329
446,025	1327
446,525	1330
447,024	1328
447,524	1324
448,023	1326
448,523	1332
449,022	1354
449,521	1473
450,02	1751
450,519	1610
451,018	1378
451,517	1324
452,015	1333
452,514	1329
453,012	1329
453,51	1334
454,008	1330
454,506	1335
455,004	1329
455,502	1326
456	1341
456,497	1331
456,995	1331
457,492	1329
457,989	1331
458,486	1331
458,983	1329
459,48	1331
459,977	1329
460,473	1331
460,97	1328
461,466	1329
461,963	1336
462,459	1325
462,955	1323
463,451	1325
463,947	1326
464,442	1332
464,938	1328
465,433	1332
465,929	1337
466,424	1329
466,919	1328
467,414	1326
467,909	1332
468,404	1337
468,899	1318
469,393	1332
469,888	1338
470,382	1322
470,876	1331
471,371	1333
471,865	1329
472,358	1323
472,852	1328
473,346	1326
473,84	1339
474,333	1327
474,826	1328
475,32	1327
475,813	1327
476,306	1341
476,799	1331
477,291	1330
477,784	1329
478,277	1334
478,769	1330
479,261	1336
479,754	1335
480,246	1326
480,738	1327
481,23	1322
481,721	1330
482,213	1322
482,705	1326
483,196	1330
483,687	1333
484,179	1341
484,67	1330
485,161	1334
485,652	1327
486,142	1332
486,633	1323
487,123	1330
487,614	1331
488,104	1321
488,594	1332
489,084	1331
489,574	1323
490,064	1337
490,554	1324
491,044	1334
491,533	1323
492,023	1328
492,512	1319
493,001	1319
493,49	1321
493,979	1325
494,468	1336
494,957	1319
495,445	1327
495,934	1325
496,422	1352
496,911	1320
497,399	1328
497,887	1332
498,375	1331
498,863	1327
499,35	1325
499,838	1330
500,326	1329
500,813	1326
501,3	1322
501,787	1330
502,275	1325
502,761	1330
503,248	1328
503,735	1326
504,222	1321
504,708	1329
505,195	1319
505,681	1324
506,167	1327
506,653	1325
507,139	1328
507,625	1332
508,111	1326
508,596	1329
509,082	1328
509,567	1324
510,053	1328
510,538	1319
511,023	1324
511,508	1332
511,993	1342
512,477	1325
512,962	1321
513,446	1335
513,931	1325
514,415	1335
514,899	1329
515,383	1330
515,867	1332
516,351	1330
516,835	1327
517,319	1320
517,802	1330
518,285	1328
518,769	1324
519,252	1324
519,735	1323
520,218	1319
520,701	1331
521,184	1328
521,666	1326
522,149	1323
522,631	1330
523,113	1323
523,596	1323
524,078	1335
524,56	1325
525,042	1326
525,523	1333
526,005	1327
526,486	1336
526,968	1324
527,449	1334
527,93	1326
528,412	1326
528,892	1325
529,373	1333
529,854	1337
530,335	1332
530,815	1341
531,296	1334
531,776	1327
532,256	1322
532,736	1322
533,216	1328
533,696	1329
534,176	1332
534,656	1330
535,135	1333
535,615	1331
536,094	1327
536,573	1331
537,052	1334
537,531	1327
538,01	1332
538,489	1332
538,968	1337
539,446	1325
539,925	1331
540,403	1329
540,881	1331
541,359	1323
541,837	1330
542,315	1322
542,793	1318
543,271	1339
543,748	1323
544,226	1331
544,703	1331
545,18	1330
545,658	1328
546,135	1324
546,612	1323
547,088	1321
547,565	1324
548,042	1337
548,518	1330
548,995	1329
549,471	1316
549,947	1327
550,423	1329
550,899	1328
551,375	1322
551,851	1325
552,326	1327
552,802	1326
553,277	1329
553,752	1331
554,228	1331
554,703	1330
555,178	1326
555,652	1326
556,127	1326
556,602	1326
557,076	1323
557,551	1314
558,025	1320
558,499	1334
558,973	1323
559,447	1329
559,921	1332
560,395	1331
560,869	1324
561,342	1322
561,816	1319
562,289	1328
562,762	1331
563,235	1319
563,708	1324
564,181	1328
564,654	1334
565,127	1316
565,599	1322
566,072	1323
566,544	1327
567,016	1328
567,489	1334
567,961	1328
568,433	1320
568,904	1332
569,376	1321
569,848	1338
570,319	1332
570,791	1327
571,262	1324
571,733	1333
572,204	1333
572,675	1324
573,146	1323
573,617	1324
574,087	1332
574,558	1323
575,028	1330
575,499	1330
575,969	1334
576,439	1327
576,909	1323
577,379	1319
577,849	1326
578,318	1325
578,788	1324
579,257	1338
579,727	1315
580,196	1328
580,665	1324
581,134	1321
581,603	1331
582,072	1328
582,54	1327
583,009	1333
583,478	1325
583,946	1326
584,414	1331
584,882	1334
585,35	1315
585,818	1326
586,286	1323
586,754	1330
587,222	1318
587,689	1325
588,157	1328
588,624	1320
589,091	1325
589,558	1320
590,025	1330
590,492	1325
590,959	1331
591,425	1327
591,892	1322
592,359	1325
592,825	1320
593,291	1335
593,757	1330
594,223	1330
594,689	1327
595,155	1325
595,621	1328
596,086	1323
596,552	1328
597,017	1330
597,483	1331
597,948	1329
598,413	1337
598,878	1327
599,343	1336
599,807	1333
600,272	1333
600,737	1329
601,201	1319
601,665	1330
602,13	1331
602,594	1328
603,058	1333
603,522	1328
603,985	1327
604,449	1330
604,913	1336
605,376	1330
605,84	1327
606,303	1335
606,766	1324
607,229	1340
607,692	1330
608,155	1317
608,618	1325
609,08	1324
609,543	1333
610,005	1315
610,467	1326
610,93	1329
611,392	1333
611,854	1328
612,316	1326
612,777	1332
613,239	1335
613,701	1331
614,162	1333
614,624	1336
615,085	1333
615,546	1337
616,007	1323
616,468	1330
616,929	1328
617,39	1318
617,85	1326
618,311	1326
618,771	1325
619,231	1342
619,692	1334
620,152	1325
620,612	1331
621,072	1330
621,531	1325
621,991	1322
622,451	1339
622,91	1340
623,369	1328
623,829	1319
624,288	1319
624,747	1320
625,206	1327
625,665	1327
626,123	1325
626,582	1326
627,041	1326
627,499	1320
627,957	1322
628,416	1328
628,874	1320
629,332	1315
629,79	1330
630,247	1322
630,705	1328
631,163	1320
631,62	1320
632,078	1330
632,535	1321
632,992	1328
633,449	1331
633,906	1320
634,363	1322
634,82	1319
635,276	1319
635,733	1325
636,189	1323
636,646	1324
637,102	1315
637,558	1320
638,014	1332
638,47	1328
638,926	1329
639,381	1318
639,837	1325
640,292	1332
640,748	1327
641,203	1332
641,658	1333
642,113	1322
642,568	1321
643,023	1327
643,478	1318
643,933	1329
644,387	1328
644,842	1334
645,296	1326
645,75	1315
646,204	1318
646,658	1320
647,112	1324
647,566	1323
648,02	1319
648,474	1327
648,927	1323
649,381	1322
649,834	1331
650,287	1334
650,74	1327
651,193	1325
651,646	1327
652,099	1330
652,552	1321
653,004	1334
653,457	1332
653,909	1328
654,361	1329
654,814	1329
655,266	1327
655,718	1330
656,169	1336
656,621	1327
657,073	1328
657,524	1338
657,976	1336
658,427	1334
658,879	1329
659,33	1328
659,781	1328
660,232	1325
660,682	1348
661,133	1332
661,584	1335
662,034	1340
662,485	1333
662,935	1337
663,385	1322
663,835	1323
664,285	1327
664,735	1331
665,185	1334
665,635	1325
666,085	1330
666,534	1333
666,983	1336
667,433	1328
667,882	1322
668,331	1330
668,78	1330
669,229	1323
669,678	1324
670,126	1322
670,575	1332
671,023	1329
671,472	1333
671,92	1329
672,368	1333
672,816	1325
673,264	1313
673,712	1331
674,16	1327
674,608	1332
675,055	1326
675,503	1323
675,95	1329
676,397	1327
676,844	1330
677,291	1330
677,738	1329
678,185	1330
678,632	1327
679,079	1314
679,525	1326
679,972	1326
680,418	1328
680,864	1332
681,31	1328
681,756	1327
682,202	1331
682,648	1319
683,094	1332
683,539	1322
683,985	1325
684,43	1330
684,876	1334
685,321	1326
685,766	1334
686,211	1332
686,656	1325
687,101	1329
687,545	1323
687,99	1325
688,434	1326
688,879	1326
689,323	1327
689,767	1323
690,211	1333
690,655	1324
691,099	1322
691,543	1329
691,987	1332
692,43	1332
692,874	1340
693,317	1330
693,761	1320
694,204	1329
694,647	1341
695,09	1334
695,533	1321
695,976	1335
696,418	1333
696,861	1327
697,303	1325
697,746	1330
698,188	1329
698,63	1323
699,072	1329
699,514	1330
699,956	1325
700,398	1316
700,839	1324
701,281	1331
701,723	1322
702,164	1333
702,605	1336
703,046	1329
703,487	1345
703,928	1325
704,369	1329
704,81	1331
705,251	1327
705,691	1336
706,132	1317
706,572	1335
707,012	1329
707,453	1334
707,893	1332
708,333	1338
708,772	1328
709,212	1329
709,652	1327
710,091	1327
710,531	1329
710,97	1339
711,409	1333
711,849	1339
712,288	1332
712,727	1321
713,166	1324
713,604	1320
714,043	1332
714,482	1334
714,92	1325
715,358	1326
715,797	1333
716,235	1332
716,673	1322
717,111	1322
717,549	1332
717,986	1317
718,424	1329
718,862	1329
719,299	1319
719,737	1332
720,174	1330
720,611	1322
721,048	1320
721,485	1334
721,922	1328
722,359	1333
722,795	1329
723,232	1330
723,668	1321
724,105	1327
724,541	1330
724,977	1320
725,413	1330
725,849	1329
726,285	1330
726,721	1321
727,157	1337
727,592	1331
728,028	1331
728,463	1340
728,898	1329
729,333	1336
729,768	1331
730,203	1321
730,638	1328
731,073	1332
731,508	1334
731,942	1329
732,377	1329
732,811	1327
733,246	1332
733,68	1335
734,114	1330
734,548	1333
734,982	1322
735,416	1331
735,849	1331
736,283	1340
736,716	1332
737,15	1334
737,583	1328
738,016	1330
738,449	1330
738,882	1326
739,315	1327
739,748	1330
740,181	1332
740,613	1326
741,046	1330
741,478	1335
741,911	1336
742,343	1332
742,775	1332
743,207	1331
743,639	1333
744,071	1328
744,502	1325
744,934	1335
745,366	1336
745,797	1338
746,228	1343
746,66	1360
747,091	1351
747,522	1355
747,953	1345
748,384	1343
748,814	1343
749,245	1331
749,676	1343
750,106	1342
750,536	1332
750,967	1340
751,397	1340
751,827	1337
752,257	1341
752,687	1364
753,116	1342
753,546	1347
753,976	1352
754,405	1350
754,835	1344
755,264	1341
755,693	1339
756,122	1329
756,551	1327
756,98	1339
757,409	1334
757,837	1330
758,266	1334
758,695	1335
759,123	1339
759,551	1339
759,979	1323
760,408	1331
760,836	1326
761,264	1321
761,691	1316
762,119	1321
762,547	1325
762,974	1327
763,402	1327
763,829	1333
764,256	1328
764,683	1329
765,11	1324
765,537	1324
765,964	1328
766,391	1325
766,818	1341
767,244	1326
767,671	1329
768,097	1333
768,523	1327
768,949	1328
769,376	1333
769,801	1330
770,227	1332
770,653	1322
771,079	1337
771,504	1334
771,93	1330
772,355	1329
772,781	1323
773,206	1329
773,631	1321
774,056	1319
774,481	1319
774,906	1324
775,33	1326
775,755	1332
776,18	1337
776,604	1326
777,028	1326
777,453	1322
777,877	1327
778,301	1319
778,725	1327
779,149	1326
779,572	1331
779,996	1324
780,42	1334
780,843	1324
781,266	1323
781,69	1326
782,113	1324
782,536	1318
782,959	1328
783,382	1320
783,805	1318
784,227	1326
784,65	1324
785,072	1328
785,495	1323
785,917	1325
786,339	1325
786,762	1324
787,184	1325
787,605	1321
788,027	1331
788,449	1324
788,871	1319
789,292	1322
789,714	1321
790,135	1318
790,556	1319
790,978	1332
791,399	1325
791,82	1329
792,24	1321
792,661	1327
793,082	1329
793,503	1329
793,923	1321
794,343	1322
794,764	1324
795,184	1330
795,604	1329
796,024	1329
796,444	1322
796,864	1319
797,284	1324
797,703	1326
798,123	1324
798,542	1339
798,962	1319
799,381	1327
799,8	1326
800,219	1330
800,638	1322
801,057	1327
801,476	1330
801,895	1332
802,313	1336
802,732	1337
803,15	1327
803,568	1326
803,987	1332
804,405	1333
804,823	1326
805,241	1337
805,659	1329
806,076	1319
806,494	1330
806,912	1333
807,329	1330
807,746	1337
808,164	1319
808,581	1330
808,998	1333
809,415	1327
809,832	1323
810,249	1320
810,665	1324
811,082	1324
811,498	1332
811,915	1329
812,331	1335
812,747	1320
813,164	1328
813,58	1326
813,996	1318
814,412	1327
814,827	1337
815,243	1330
815,659	1339
816,074	1322
816,489	1323
816,905	1327
817,32	1333
817,735	1322
818,15	1324
818,565	1326
818,98	1333
819,395	1323
819,809	1327
820,224	1325
820,638	1335
821,053	1321
821,467	1328
821,881	1326
822,295	1334
822,709	1334
823,123	1323
823,537	1331
823,95	1339
824,364	1327
824,778	1325
825,191	1331
825,604	1331
826,018	1326
826,431	1324
826,844	1339
827,257	1324
827,67	1323
828,082	1314
828,495	1331
828,908	1333
829,32	1326
829,733	1325
830,145	1326
830,557	1327
830,969	1329
831,381	1330
831,793	1327
832,205	1323
832,617	1318
833,028	1329
833,44	1333
833,851	1323
834,263	1319
834,674	1325
835,085	1326
835,496	1321
835,907	1326
836,318	1321
836,729	1324
837,14	1327
837,55	1329
837,961	1322
838,371	1320
838,782	1315
839,192	1317
839,602	1324
840,012	1322
840,422	1320
840,832	1324
841,242	1315
841,652	1316
842,061	1320
842,471	1323
842,88	1323
843,29	1322
843,699	1329
844,108	1326
844,517	1322
844,926	1320
845,335	1323
845,744	1313
846,152	1324
846,561	1328
846,97	1322
847,378	1315
847,786	1318
848,195	1326
848,603	1326
849,011	1320
849,419	1328
849,827	1318
850,234	1321
850,642	1319
851,05	1327
851,457	1318
851,864	1321
852,272	1315
852,679	1324
853,086	1325
853,493	1320
853,9	1328
854,307	1324
854,714	1324
855,12	1322
855,527	1330
855,933	1321
856,34	1318
856,746	1321
857,152	1319
857,559	1323
857,965	1316
858,371	1323
858,776	1327
859,182	1316
859,588	1313
859,993	1330
860,399	1335
860,804	1316
861,21	1324
861,615	1324
862,02	1317
862,425	1326
862,83	1317
863,235	1318
863,639	1328
864,044	1323
864,449	1329
864,853	1329
865,258	1330
865,662	1330
866,066	1328
866,47	1336
866,874	1337
867,278	1321
867,682	1330
868,086	1319
868,489	1325
868,893	1325
869,296	1329
869,7	1332
870,103	1328
870,506	1328
870,909	1331
871,312	1326
871,715	1331
872,118	1325
872,521	1329
872,924	1333
873,326	1333
873,729	1329
874,131	1336
874,533	1335
874,936	1333
875,338	1338
875,74	1337
876,142	1334
876,544	1329
876,945	1343
877,347	1333
877,749	1341
878,15	1333
878,552	1347
878,953	1338
879,354	1333
879,755	1334
880,156	1343
880,557	1343
880,958	1360
881,359	1356
881,759	1345
882,16	1348
882,561	1351
882,961	1350
883,361	1360
883,762	1367
884,162	1360
884,562	1367
884,962	1373
885,362	1370
885,761	1379
886,161	1379
886,561	1381
886,96	1388
887,36	1395
887,759	1410
888,158	1407
888,557	1411
888,956	1404
889,355	1414
889,754	1429
890,153	1438
890,552	1454
890,95	1479
891,349	1485
891,747	1490
892,146	1513
892,544	1535
892,942	1554
893,34	1597
893,738	1618
894,136	1672
894,534	1701
894,932	1791
895,329	1845
895,727	1922
896,124	1986
896,522	2114
896,919	2236
897,316	2476
897,713	2844
898,11	3912
898,507	7688
898,904	20974
899,301	35202
899,697	39662
900,094	30695
900,49	11838
900,887	4702
901,283	3120
901,679	2717
902,075	2454
902,472	2283
902,867	2140
903,263	2005
903,659	1930
904,055	1889
904,45	1840
904,846	1749
905,241	1729
905,637	1672
906,032	1615
906,427	1591
906,822	1578
907,217	1558
907,612	1546
908,007	1519
908,401	1510
908,796	1484
909,191	1458
909,585	1453
909,979	1444
910,374	1438
910,768	1433
911,162	1442
911,556	1422
911,95	1442
912,344	1438
912,737	1443
913,131	1435
913,525	1435
913,918	1454
914,312	1409
914,705	1416
915,098	1409
915,491	1427
915,884	1415
916,277	1427
916,67	1444
917,063	1466
917,455	1468
917,848	1434
918,241	1410
918,633	1439
919,025	1457
919,418	1509
919,81	1535
920,202	1539
920,594	1525
920,986	1497
921,378	1465
921,769	1457
922,161	1425
922,552	1410
922,944	1393
923,335	1377
923,727	1374
924,118	1374
924,509	1360
924,9	1371
925,291	1366
925,682	1358
926,072	1347
926,463	1355
926,854	1341
927,244	1341
927,635	1330
928,025	1333
928,415	1333
928,805	1335
929,195	1331
929,585	1325
929,975	1328
930,365	1329
930,755	1323
931,144	1321
931,534	1332
931,923	1324
932,313	1332
932,702	1327
933,091	1335
933,48	1334
933,869	1320
934,258	1331
934,647	1321
935,036	1332
935,425	1320
935,813	1324
936,202	1337
936,59	1321
936,978	1323
937,367	1321
937,755	1321
938,143	1319
938,531	1321
938,919	1333
939,307	1328
939,694	1324
940,082	1328
940,47	1321
940,857	1324
941,244	1321
941,632	1327
942,019	1328
942,406	1334
942,793	1334
943,18	1335
943,567	1311
943,954	1324
944,34	1316
944,727	1333
945,114	1327
945,5	1329
945,886	1325
946,273	1338
946,659	1316
947,045	1328
947,431	1330
947,817	1325
948,203	1330
948,588	1318
948,974	1324
949,36	1336
949,745	1324
950,131	1334
950,516	1329
950,901	1326
951,286	1321
951,671	1325
952,056	1329
952,441	1316
952,826	1323
953,211	1328
953,595	1311
953,98	1330
954,364	1332
954,749	1333
955,133	1341
955,517	1338
955,901	1319
956,285	1328
956,669	1331
957,053	1320
957,437	1321
957,821	1333
958,204	1324
958,588	1327
958,971	1331
959,355	1318
959,738	1322
960,121	1321
960,504	1328
960,887	1330
961,27	1323
961,653	1330
962,036	1325
962,418	1327
962,801	1320
963,184	1325
963,566	1332
963,948	1327
964,331	1330
964,713	1315
965,095	1327
965,477	1324
965,859	1329
966,241	1323
966,622	1331
967,004	1317
967,386	1321
967,767	1325
968,149	1322
968,53	1337
968,911	1322
969,292	1322
969,673	1329
970,054	1321
970,435	1331
970,816	1322
971,197	1315
971,577	1319
971,958	1314
972,339	1329
972,719	1321
973,099	1323
973,479	1335
973,86	1324
974,24	1315
974,62	1324
975	1333
975,379	1329
975,759	1326
976,139	1326
976,518	1323
976,898	1324
977,277	1332
977,656	1321
978,036	1323
978,415	1322
978,794	1324
979,173	1339
979,552	1325
979,931	1316
980,309	1329
980,688	1327
981,066	1321
981,445	1327
981,823	1324
982,202	1329
982,58	1330
982,958	1329
983,336	1329
983,714	1323
984,092	1328
984,47	1330
984,847	1320
985,225	1332
985,603	1328
985,98	1325
986,357	1333
986,735	1324
987,112	1329
987,489	1324
987,866	1336
988,243	1327
988,62	1329
988,997	1319
989,374	1325
989,75	1327
990,127	1332
990,503	1329
990,88	1335
991,256	1329
991,632	1321
992,008	1333
992,384	1334
992,76	1325
993,136	1328
993,512	1329
993,888	1322
994,263	1319
994,639	1319
995,014	1325
995,39	1325
995,765	1328
996,14	1310
996,516	1319
996,891	1323
997,266	1328
997,641	1319
998,015	1320
998,39	1319
998,765	1325
999,139	1320
999,514	1321
999,888	1322
1000,263	1316
1000,637	1326
1001,011	1330
1001,385	1323
1001,759	1323
1002,133	1321
1002,507	1323
1002,881	1326
1003,254	1333
1003,628	1323
1004,001	1323
1004,375	1322
1004,748	1320
1005,121	1326
1005,494	1312
1005,868	1323
1006,241	1326
1006,614	1321
1006,986	1317
1007,359	1321
1007,732	1318
1008,104	1320
1008,477	1318
1008,849	1326
1009,222	1320
1009,594	1325
1009,966	1317
1010,338	1328
1010,71	1327
1011,082	1321
1011,454	1325
1011,826	1327
1012,198	1314
1012,569	1324
1012,941	1323
1013,312	1318
1013,684	1325
1014,055	1313
1014,426	1324
1014,797	1319
1015,168	1325
1015,539	1317
1015,91	1329
1016,281	1325
1016,652	1320
1017,022	1324
1017,393	1319
1017,763	1323
1018,134	1319
1018,504	1316
1018,874	1324
1019,245	1317
1019,615	1325
1019,985	1318
1020,355	1321
1020,724	1325
1021,094	1317
1021,464	1322
1021,833	1324
1022,203	1323
1022,572	1329
1022,942	1311
1023,311	1326
1023,68	1323
1024,049	1327
1024,418	1316
1024,787	1319
1025,156	1324
1025,525	1322
1025,894	1323
1026,262	1319
1026,631	1323
1026,999	1324
1027,368	1320
1027,736	1320
1028,104	1322
1028,472	1325
1028,84	1313
1029,208	1323
1029,576	1324
1029,944	1314
1030,312	1316
1030,68	1313
1031,047	1317
1031,415	1316
1031,782	1322
1032,149	1317
1032,517	1324
1032,884	1317
1033,251	1316
1033,618	1320
1033,985	1317
1034,352	1318
1034,719	1319
1035,085	1318
1035,452	1317
1035,818	1315
1036,185	1320
1036,551	1320
1036,918	1318
1037,284	1325
1037,65	1316
1038,016	1320
1038,382	1320
1038,748	1319
1039,114	1316
1039,479	1324
1039,845	1317
1040,211	1314
1040,576	1317
1040,942	1326
1041,307	1319
1041,672	1322
1042,037	1330
1042,402	1322
1042,767	1322
1043,132	1312
1043,497	1320
1043,862	1327
1044,227	1323
1044,591	1329
1044,956	1318
1045,32	1319
1045,685	1332
1046,049	1320
1046,413	1330
1046,778	1333
1047,142	1314
1047,506	1319
1047,87	1320
1048,233	1316
1048,597	1323
1048,961	1329
1049,324	1327
1049,688	1327
1050,051	1322
1050,415	1330
1050,778	1327
1051,141	1333
1051,504	1319
1051,867	1322
1052,23	1332
1052,593	1332
1052,956	1327
1053,319	1319
1053,681	1322
1054,044	1314
1054,407	1322
1054,769	1328
1055,131	1319
1055,494	1320
1055,856	1319
1056,218	1325
1056,58	1324
1056,942	1324
1057,304	1323
1057,665	1322
1058,027	1320
1058,389	1322
1058,75	1321
1059,112	1316
1059,473	1333
1059,835	1324
1060,196	1326
1060,557	1318
1060,918	1319
1061,279	1319
1061,64	1320
1062,001	1325
1062,362	1314
1062,722	1320
1063,083	1319
1063,444	1319
1063,804	1320
1064,164	1318
1064,525	1331
1064,885	1319
1065,245	1325
1065,605	1326
1065,965	1321
1066,325	1324
1066,685	1317
1067,045	1325
1067,404	1329
1067,764	1325
1068,123	1328
1068,483	1320
1068,842	1326
1069,202	1330
1069,561	1317
1069,92	1316
1070,279	1322
1070,638	1323
1070,997	1316
1071,356	1320
1071,714	1326
1072,073	1309
1072,432	1316
1072,79	1320
1073,149	1308
1073,507	1318
1073,865	1316
1074,224	1319
1074,582	1315
1074,94	1315
1075,298	1318
1075,656	1309
1076,013	1318
1076,371	1314
1076,729	1322
1077,086	1315
1077,444	1316
1077,801	1319
1078,159	1314
1078,516	1312
1078,873	1326
1079,23	1311
1079,587	1310
1079,944	1312
1080,301	1317
1080,658	1314
1081,015	1308
1081,372	1311
1081,728	1312
1082,085	1313
1082,441	1318
1082,798	1312
1083,154	1314
1083,51	1308
1083,866	1314
1084,222	1309
1084,578	1309
1084,934	1311
1085,29	1317
1085,646	1324
1086,001	1310
1086,357	1315
1086,712	1319
1087,068	1311
1087,423	1312
1087,779	1322
1088,134	1317
1088,489	1316
1088,844	1325
1089,199	1323
1089,554	1322
1089,909	1312
1090,264	1317
1090,618	1314
1090,973	1319
1091,327	1305
1091,682	1314
1092,036	1314
1092,39	1316
1092,745	1309
1093,099	1315
1093,453	1317
1093,807	1313
1094,161	1315
1094,515	1305
1094,868	1324
1095,222	1312
1095,576	1320
1095,929	1315
1096,283	1314
1096,636	1316
1096,99	1321
1097,343	1326
1097,696	1314
1098,049	1316
1098,402	1316
1098,755	1316
1099,108	1320
1099,461	1320
1099,813	1319
1100,166	1311
1100,519	1323
1100,871	1310
1101,223	1318
1101,576	1313
1101,928	1308
1102,28	1309
1102,632	1316
1102,984	1318
1103,336	1303
1103,688	1321
1104,04	1322
1104,392	1321
1104,743	1312
1105,095	1306
1105,447	1318
1105,798	1320
1106,149	1314
1106,501	1319
1106,852	1316
1107,203	1310
1107,554	1308
1107,905	1315
1108,256	1321
1108,607	1314
1108,958	1318
1109,308	1314
1109,659	1313
1110,009	1322
1110,36	1312
1110,71	1314
1111,061	1311
1111,411	1301
1111,761	1299
1112,111	1299
1112,461	1296
